**** COMMENT ****

**** INPUTS ****
kVp [kV] hvMIN [keV] Dhv [keV]
59  7  1
Angle [deg.]
10
t_AIR t_BE t_AL t_CU t_SN t_W t_Wa [mm]
0  1.4  0  0  0  0  0
Nf P
0.68  0.33
****CALCULATED OUTPUTS ****
Brem[uGy/mAs@1m] Char[uGy/mAs@1m]
882.2487  0
HVL1[cm AL] HVL2[cm AL] HVL1[cmCu] HVL2[cmCu] MeanE[keV] EffEAl[keV] EffECu[keV]
0.009789  0.0190277  0.0007999  0.001255  22.48525  9.997316  6.478729
**** CALCULATED SPECTRUM ****
Energy[keV]  N[keV cm^2 mAs]^-1 @ 1 meter
7  9.677163e+6
8  1.207989e+7
9  1.386439e+7
10  1.484029e+7
11  8.233628e+6
12  6.885830e+6
13  6.541707e+6
14  6.875887e+6
15  7.094785e+6
16  7.279040e+6
17  7.343740e+6
18  7.322349e+6
19  7.245527e+6
20  7.112372e+6
21  6.941490e+6
22  6.743781e+6
23  6.516880e+6
24  6.275197e+6
25  6.024219e+6
26  5.769024e+6
27  5.509867e+6
28  5.253735e+6
29  5.003494e+6
30  4.758190e+6
31  4.519892e+6
32  4.285907e+6
33  4.059989e+6
34  3.843879e+6
35  3.634773e+6
36  3.432297e+6
37  3.239812e+6
38  3.053531e+6
39  2.874231e+6
40  2.699095e+6
41  2.533085e+6
42  2.373881e+6
43  2.219395e+6
44  2.070488e+6
45  1.926587e+6
46  1.786111e+6
47  1.649911e+6
48  1.518143e+6
49  1.390890e+6
50  1.265591e+6
51  1.142526e+6
52  1.021702e+6
53  899945.6
54  778866.3
55  658767.9
56  532057.9
57  402837.9
58  253751
59  0
