**** COMMENT ****

**** INPUTS ****
kVp [kV] hvMIN [keV] Dhv [keV]
53  7  1
Angle [deg.]
10
t_AIR t_BE t_AL t_CU t_SN t_W t_Wa [mm]
0  1.4  0  0  0  0  0
Nf P
0.68  0.33
****CALCULATED OUTPUTS ****
Brem[uGy/mAs@1m] Char[uGy/mAs@1m]
874.0366  0
HVL1[cm AL] HVL2[cm AL] HVL1[cmCu] HVL2[cmCu] MeanE[keV] EffEAl[keV] EffECu[keV]
0.0093837  0.0172739  0.0007832  0.001194  20.60994  9.878077  6.427299
**** CALCULATED SPECTRUM ****
Energy[keV]  N[keV cm^2 mAs]^-1 @ 1 meter
7  1.002705e+7
8  1.231760e+7
9  1.386798e+7
10  1.458662e+7
11  8.387851e+6
12  7.030390e+6
13  6.647399e+6
14  6.910839e+6
15  7.047936e+6
16  7.139260e+6
17  7.117587e+6
18  7.013168e+6
19  6.862971e+6
20  6.669599e+6
21  6.445190e+6
22  6.200791e+6
23  5.938749e+6
24  5.669449e+6
25  5.397350e+6
26  5.127749e+6
27  4.860816e+6
28  4.598499e+6
29  4.343180e+6
30  4.096655e+6
31  3.858750e+6
32  3.627447e+6
33  3.407009e+6
34  3.194945e+6
35  2.990973e+6
36  2.791132e+6
37  2.603117e+6
38  2.421297e+6
39  2.246054e+6
40  2.076845e+6
41  1.914215e+6
42  1.756758e+6
43  1.604089e+6
44  1.456681e+6
45  1.311528e+6
46  1.169148e+6
47  1.028295e+6
48  888642.2
49  748815.4
50  605936.9
51  453784.2
52  297814.5
53  0
