**** COMMENT ****

**** INPUTS ****
kVp [kV] hvMIN [keV] Dhv [keV]
55  7  1
Angle [deg.]
10
t_AIR t_BE t_AL t_CU t_SN t_W t_Wa [mm]
0  1.4  0  0  0  0  0
Nf P
0.68  0.33
****CALCULATED OUTPUTS ****
Brem[uGy/mAs@1m] Char[uGy/mAs@1m]
877.8311  0
HVL1[cm AL] HVL2[cm AL] HVL1[cmCu] HVL2[cmCu] MeanE[keV] EffEAl[keV] EffECu[keV]
0.0095172  0.0178337  0.0007885  0.0012138  21.23247  9.918477  6.4439
**** CALCULATED SPECTRUM ****
Energy[keV]  N[keV cm^2 mAs]^-1 @ 1 meter
7  9.919518e+6
8  1.225241e+7
9  1.388679e+7
10  1.469638e+7
11  8.345131e+6
12  6.984215e+6
13  6.614760e+6
14  6.905130e+6
15  7.071310e+6
16  7.196592e+6
17  7.204527e+6
18  7.130548e+6
19  7.005179e+6
20  6.833060e+6
21  6.626906e+6
22  6.397111e+6
23  6.142744e+6
24  5.881710e+6
25  5.615743e+6
26  5.348908e+6
27  5.086645e+6
28  4.826006e+6
29  4.571627e+6
30  4.325197e+6
31  4.086792e+6
32  3.854516e+6
33  3.630801e+6
34  3.417418e+6
35  3.211310e+6
36  3.011030e+6
37  2.821378e+6
38  2.639534e+6
39  2.463227e+6
40  2.293091e+6
41  2.129992e+6
42  1.972301e+6
43  1.819853e+6
44  1.671053e+6
45  1.527160e+6
46  1.386780e+6
47  1.249110e+6
48  1.114101e+6
49  981803.9
50  849130.9
51  715996
52  579089.1
53  435399.7
54  281748.9
55  0
