**** COMMENT ****

**** INPUTS ****
kVp [kV] hvMIN [keV] Dhv [keV]
67  7  1
Angle [deg.]
10
t_AIR t_BE t_AL t_CU t_SN t_W t_Wa [mm]
0  1.4  0  0  0  0  0
Nf P
0.68  0.33
****CALCULATED OUTPUTS ****
Brem[uGy/mAs@1m] Char[uGy/mAs@1m]
884.7776  0
HVL1[cm AL] HVL2[cm AL] HVL1[cmCu] HVL2[cmCu] MeanE[keV] EffEAl[keV] EffECu[keV]
0.010325  0.0216417  0.0008244  0.0013443  24.99464  10.20873  6.549798
**** CALCULATED SPECTRUM ****
Energy[keV]  N[keV cm^2 mAs]^-1 @ 1 meter
7  9.221001e+6
8  1.168919e+7
9  1.368624e+7
10  1.494258e+7
11  7.971402e+6
12  6.648324e+6
13  6.346410e+6
14  6.752711e+6
15  7.055565e+6
16  7.332455e+6
17  7.497688e+6
18  7.572549e+6
19  7.587817e+6
20  7.538563e+6
21  7.444842e+6
22  7.311255e+6
23  7.139403e+6
24  6.939174e+6
25  6.724683e+6
26  6.497375e+6
27  6.263049e+6
28  6.019870e+6
29  5.780284e+6
30  5.542011e+6
31  5.308104e+6
32  5.071239e+6
33  4.846926e+6
34  4.629113e+6
35  4.416675e+6
36  4.203955e+6
37  4.006310e+6
38  3.813561e+6
39  3.627467e+6
40  3.444625e+6
41  3.273238e+6
42  3.106734e+6
43  2.946238e+6
44  2.789468e+6
45  2.640559e+6
46  2.496619e+6
47  2.357357e+6
48  2.221050e+6
49  2.091697e+6
50  1.965952e+6
51  1.844039e+6
52  1.724010e+6
53  1.609676e+6
54  1.497620e+6
55  1.389275e+6
56  1.280367e+6
57  1.176225e+6
58  1.073552e+6
59  972477.9
60  869686.7
61  769560
62  669369.6
63  569184.2
64  457350.3
65  351315.8
66  209959.7
67  0
