**** COMMENT ****

**** INPUTS ****
kVp [kV] hvMIN [keV] Dhv [keV]
68  7  1
Angle [deg.]
10
t_AIR t_BE t_AL t_CU t_SN t_W t_Wa [mm]
0  1.4  0  0  0  0  0
Nf P
0.68  0.33
****CALCULATED OUTPUTS ****
Brem[uGy/mAs@1m] Char[uGy/mAs@1m]
884.6495  0
HVL1[cm AL] HVL2[cm AL] HVL1[cmCu] HVL2[cmCu] MeanE[keV] EffEAl[keV] EffECu[keV]
0.0103917  0.0219965  0.0008282  0.0013557  25.30784  10.23369  6.560524
**** CALCULATED SPECTRUM ****
Energy[keV]  N[keV cm^2 mAs]^-1 @ 1 meter
7  9.165622e+6
8  1.163646e+7
9  1.365507e+7
10  1.494208e+7
11  7.937230e+6
12  6.617462e+6
13  6.320445e+6
14  6.733470e+6
15  7.045031e+6
16  7.332928e+6
17  7.508004e+6
18  7.594416e+6
19  7.616838e+6
20  7.582362e+6
21  7.496856e+6
22  7.372236e+6
23  7.203539e+6
24  7.013825e+6
25  6.803340e+6
26  6.580873e+6
27  6.345709e+6
28  6.109066e+6
29  5.870509e+6
30  5.634127e+6
31  5.397245e+6
32  5.164522e+6
33  4.939886e+6
34  4.720361e+6
35  4.507493e+6
36  4.296317e+6
37  4.097721e+6
38  3.902468e+6
39  3.715571e+6
40  3.533928e+6
41  3.361264e+6
42  3.192244e+6
43  3.031000e+6
44  2.875269e+6
45  2.725366e+6
46  2.578631e+6
47  2.438739e+6
48  2.303788e+6
49  2.173798e+6
50  2.046262e+6
51  1.923200e+6
52  1.804793e+6
53  1.688811e+6
54  1.576542e+6
55  1.467512e+6
56  1.361128e+6
57  1.255856e+6
58  1.153861e+6
59  1.052931e+6
60  954184.3
61  853938.1
62  755871.7
63  657352.6
64  558848.9
65  449579
66  345921.2
67  205360.4
68  0
