**** COMMENT ****

**** INPUTS ****
kVp [kV] hvMIN [keV] Dhv [keV]
56  7  1
Angle [deg.]
10
t_AIR t_BE t_AL t_CU t_SN t_W t_Wa [mm]
0  1.4  0  0  0  0  0
Nf P
0.68  0.33
****CALCULATED OUTPUTS ****
Brem[uGy/mAs@1m] Char[uGy/mAs@1m]
879.2484  0
HVL1[cm AL] HVL2[cm AL] HVL1[cmCu] HVL2[cmCu] MeanE[keV] EffEAl[keV] EffECu[keV]
0.009584  0.0181236  0.0007915  0.0012238  21.54532  9.938255  6.453286
**** CALCULATED SPECTRUM ****
Energy[keV]  N[keV cm^2 mAs]^-1 @ 1 meter
7  9.862230e+6
8  1.221650e+7
9  1.389040e+7
10  1.472918e+7
11  8.314006e+6
12  6.959941e+6
13  6.599156e+6
14  6.902731e+6
15  7.083377e+6
16  7.222184e+6
17  7.244894e+6
18  7.184544e+6
19  7.067832e+6
20  6.905471e+6
21  6.707567e+6
22  6.484681e+6
23  6.241413e+6
24  5.985267e+6
25  5.723077e+6
26  5.459187e+6
27  5.197378e+6
28  4.935644e+6
29  4.681355e+6
30  4.434646e+6
31  4.195665e+6
32  3.963886e+6
33  3.741298e+6
34  3.527471e+6
35  3.321312e+6
36  3.120399e+6
37  2.930407e+6
38  2.744799e+6
39  2.567480e+6
40  2.396333e+6
41  2.233493e+6
42  2.075196e+6
43  1.922252e+6
44  1.774455e+6
45  1.631244e+6
46  1.492230e+6
47  1.354530e+6
48  1.220843e+6
49  1.089300e+6
50  959123.9
51  830502.8
52  700776.3
53  566624.4
54  426682
55  274294
56  0
