**** COMMENT ****

**** INPUTS ****
kVp [kV] hvMIN [keV] Dhv [keV]
54  7  1
Angle [deg.]
10
t_AIR t_BE t_AL t_CU t_SN t_W t_Wa [mm]
0  1.4  0  0  0  0  0
Nf P
0.68  0.33
****CALCULATED OUTPUTS ****
Brem[uGy/mAs@1m] Char[uGy/mAs@1m]
876.0857  0
HVL1[cm AL] HVL2[cm AL] HVL1[cmCu] HVL2[cmCu] MeanE[keV] EffEAl[keV] EffECu[keV]
0.0094495  0.0175505  0.0007854  0.0012039  20.92088  9.898131  6.434441
**** CALCULATED SPECTRUM ****
Energy[keV]  N[keV cm^2 mAs]^-1 @ 1 meter
7  9.976463e+6
8  1.228618e+7
9  1.387939e+7
10  1.464395e+7
11  8.367277e+6
12  7.010190e+6
13  6.634244e+6
14  6.908232e+6
15  7.059824e+6
16  7.166785e+6
17  7.159605e+6
18  7.071811e+6
19  6.933898e+6
20  6.753318e+6
21  6.537968e+6
22  6.300781e+6
23  6.044379e+6
24  5.779485e+6
25  5.510718e+6
26  5.241877e+6
27  4.974134e+6
28  4.712344e+6
29  4.457121e+6
30  4.210249e+6
31  3.971827e+6
32  3.739670e+6
33  3.519679e+6
34  3.307039e+6
35  3.102062e+6
36  2.903065e+6
37  2.714499e+6
38  2.532455e+6
39  2.356899e+6
40  2.187557e+6
41  2.023288e+6
42  1.865488e+6
43  1.712761e+6
44  1.564668e+6
45  1.420256e+6
46  1.279122e+6
47  1.141326e+6
48  1.004476e+6
49  868426.2
50  732116.1
51  592127.1
52  444388.1
53  289631.6
54  0
