**** COMMENT ****

**** INPUTS ****
kVp [kV] hvMIN [keV] Dhv [keV]
61  7  1
Angle [deg.]
10
t_AIR t_BE t_AL t_CU t_SN t_W t_Wa [mm]
0  1.4  0  0  0  0  0
Nf P
0.68  0.33
****CALCULATED OUTPUTS ****
Brem[uGy/mAs@1m] Char[uGy/mAs@1m]
883.7178  0
HVL1[cm AL] HVL2[cm AL] HVL1[cmCu] HVL2[cmCu] MeanE[keV] EffEAl[keV] EffECu[keV]
0.0099225  0.0196457  0.000806  0.0012756  23.11155  10.05115  6.4969
**** CALCULATED SPECTRUM ****
Energy[keV]  N[keV cm^2 mAs]^-1 @ 1 meter
7  9.558586e+6
8  1.199563e+7
9  1.383751e+7
10  1.489131e+7
11  8.173954e+6
12  6.826546e+6
13  6.495113e+6
14  6.853364e+6
15  7.096721e+6
16  7.306623e+6
17  7.394329e+6
18  7.397019e+6
19  7.345198e+6
20  7.236793e+6
21  7.085799e+6
22  6.903062e+6
23  6.685324e+6
24  6.455188e+6
25  6.211870e+6
26  5.962676e+6
27  5.711667e+6
28  5.456856e+6
29  5.206769e+6
30  4.963791e+6
31  4.725774e+6
32  4.491338e+6
33  4.267104e+6
34  4.048046e+6
35  3.837574e+6
36  3.633103e+6
37  3.439071e+6
38  3.251497e+6
39  3.068510e+6
40  2.892745e+6
41  2.726260e+6
42  2.564794e+6
43  2.409239e+6
44  2.259389e+6
45  2.112591e+6
46  1.971837e+6
47  1.836378e+6
48  1.704900e+6
49  1.577572e+6
50  1.452493e+6
51  1.329988e+6
52  1.211574e+6
53  1.094542e+6
54  978938.3
55  864862.1
56  748634.3
57  632443.2
58  511490.7
59  388451.6
60  241439.2
61  0
