**** COMMENT ****

**** INPUTS ****
kVp [kV] hvMIN [keV] Dhv [keV]
58  7  1
Angle [deg.]
10
t_AIR t_BE t_AL t_CU t_SN t_W t_Wa [mm]
0  1.4  0  0  0  0  0
Nf P
0.68  0.33
****CALCULATED OUTPUTS ****
Brem[uGy/mAs@1m] Char[uGy/mAs@1m]
881.437  0
HVL1[cm AL] HVL2[cm AL] HVL1[cmCu] HVL2[cmCu] MeanE[keV] EffEAl[keV] EffECu[keV]
0.0097194  0.0187206  0.0007969  0.0012444  22.17177  9.977542  6.469539
**** CALCULATED SPECTRUM ****
Energy[keV]  N[keV cm^2 mAs]^-1 @ 1 meter
7  9.747103e+6
8  1.212402e+7
9  1.386707e+7
10  1.480904e+7
11  8.262235e+6
12  6.911911e+6
13  6.561735e+6
14  6.889486e+6
15  7.092936e+6
16  7.260425e+6
17  7.310681e+6
18  7.278321e+6
19  7.189164e+6
20  7.048961e+6
21  6.870027e+6
22  6.659943e+6
23  6.426012e+6
24  6.178806e+6
25  5.925430e+6
26  5.666884e+6
27  5.408904e+6
28  5.152158e+6
29  4.897655e+6
30  4.651405e+6
31  4.412327e+6
32  4.179520e+6
33  3.955949e+6
34  3.740977e+6
35  3.533243e+6
36  3.330981e+6
37  3.136932e+6
38  2.950974e+6
39  2.773057e+6
40  2.600653e+6
41  2.435836e+6
42  2.276639e+6
43  2.123089e+6
44  1.973053e+6
45  1.828794e+6
46  1.689243e+6
47  1.554546e+6
48  1.422898e+6
49  1.294368e+6
50  1.168498e+6
51  1.042736e+6
52  918719.7
53  795086.9
54  672105.7
55  543139.7
56  410429.3
57  260276.3
58  0
