**** COMMENT ****

**** INPUTS ****
kVp [kV] hvMIN [keV] Dhv [keV]
64  7  1
Angle [deg.]
10
t_AIR t_BE t_AL t_CU t_SN t_W t_Wa [mm]
0  1.4  0  0  0  0  0
Nf P
0.68  0.33
****CALCULATED OUTPUTS ****
Brem[uGy/mAs@1m] Char[uGy/mAs@1m]
884.8354  0
HVL1[cm AL] HVL2[cm AL] HVL1[cmCu] HVL2[cmCu] MeanE[keV] EffEAl[keV] EffECu[keV]
0.0101218  0.0206127  0.0008152  0.0013092  24.05272  10.13076  6.523646
**** CALCULATED SPECTRUM ****
Energy[keV]  N[keV cm^2 mAs]^-1 @ 1 meter
7  9.390472e+6
8  1.185273e+7
9  1.377874e+7
10  1.492136e+7
11  8.072648e+6
12  6.741331e+6
13  6.424421e+6
14  6.805447e+6
15  7.081311e+6
16  7.327944e+6
17  7.457397e+6
18  7.498339e+6
19  7.474885e+6
20  7.399574e+6
21  7.276536e+6
22  7.118331e+6
23  6.921846e+6
24  6.706309e+6
25  6.477938e+6
26  6.239100e+6
27  5.996029e+6
28  5.746172e+6
29  5.501775e+6
30  5.260147e+6
31  5.023826e+6
32  4.787164e+6
33  4.561200e+6
34  4.344816e+6
35  4.133175e+6
36  3.925325e+6
37  3.727094e+6
38  3.537065e+6
39  3.353050e+6
40  3.175428e+6
41  3.006034e+6
42  2.839812e+6
43  2.682268e+6
44  2.529981e+6
45  2.383248e+6
46  2.240047e+6
47  2.102540e+6
48  1.969676e+6
49  1.841381e+6
50  1.717235e+6
51  1.594224e+6
52  1.477003e+6
53  1.362085e+6
54  1.249583e+6
55  1.138516e+6
56  1.028546e+6
57  921394.9
58  814434.7
59  707852.4
60  598518
61  483324
62  368909.5
63  224738.9
64  0
