**** COMMENT ****

**** INPUTS ****
kVp [kV] hvMIN [keV] Dhv [keV]
63  7  1
Angle [deg.]
10
t_AIR t_BE t_AL t_CU t_SN t_W t_Wa [mm]
0  1.4  0  0  0  0  0
Nf P
0.68  0.33
****CALCULATED OUTPUTS ****
Brem[uGy/mAs@1m] Char[uGy/mAs@1m]
884.5673  0
HVL1[cm AL] HVL2[cm AL] HVL1[cmCu] HVL2[cmCu] MeanE[keV] EffEAl[keV] EffECu[keV]
0.0100551  0.0202847  0.0008121  0.0012985  23.73925  10.10445  6.514797
**** CALCULATED SPECTRUM ****
Energy[keV]  N[keV cm^2 mAs]^-1 @ 1 meter
7  9.447943e+6
8  1.190119e+7
9  1.380057e+7
10  1.491192e+7
11  8.102932e+6
12  6.770589e+6
13  6.448413e+6
14  6.825111e+6
15  7.086117e+6
16  7.321989e+6
17  7.438773e+6
18  7.467270e+6
19  7.437459e+6
20  7.346059e+6
21  7.214844e+6
22  7.047823e+6
23  6.847733e+6
24  6.628230e+6
25  6.389700e+6
26  6.148361e+6
27  5.902042e+6
28  5.653605e+6
29  5.407413e+6
30  5.161540e+6
31  4.925372e+6
32  4.690500e+6
33  4.465808e+6
34  4.246951e+6
35  4.034925e+6
36  3.828575e+6
37  3.632968e+6
38  3.443557e+6
39  3.259126e+6
40  3.081316e+6
41  2.913258e+6
42  2.750164e+6
43  2.593136e+6
44  2.440224e+6
45  2.293166e+6
46  2.152704e+6
47  2.015611e+6
48  1.883731e+6
49  1.754200e+6
50  1.630226e+6
51  1.508878e+6
52  1.391220e+6
53  1.276408e+6
54  1.161389e+6
55  1.050307e+6
56  939726.4
57  830462.2
58  721865
59  609322.9
60  492395.6
61  375144.4
62  230104.8
63  0
