**** COMMENT ****

**** INPUTS ****
kVp [kV] hvMIN [keV] Dhv [keV]
69  7  1
Angle [deg.]
10
t_AIR t_BE t_AL t_CU t_SN t_W t_Wa [mm]
0  1.4  0  0  0  0  0
Nf P
0.68  0.33
****CALCULATED OUTPUTS ****
Brem[uGy/mAs@1m] Char[uGy/mAs@1m]
884.4161  0
HVL1[cm AL] HVL2[cm AL] HVL1[cmCu] HVL2[cmCu] MeanE[keV] EffEAl[keV] EffECu[keV]
0.0104594  0.022356  0.0008312  0.001368  25.62128  10.25867  6.569034
**** CALCULATED SPECTRUM ****
Energy[keV]  N[keV cm^2 mAs]^-1 @ 1 meter
7  9.110854e+6
8  1.158351e+7
9  1.362245e+7
10  1.493915e+7
11  7.896978e+6
12  6.588834e+6
13  6.294374e+6
14  6.713738e+6
15  7.028531e+6
16  7.330646e+6
17  7.516870e+6
18  7.614640e+6
19  7.648075e+6
20  7.622747e+6
21  7.547108e+6
22  7.427063e+6
23  7.269994e+6
24  7.085465e+6
25  6.880655e+6
26  6.658065e+6
27  6.431097e+6
28  6.195968e+6
29  5.959942e+6
30  5.721946e+6
31  5.489275e+6
32  5.256154e+6
33  5.029290e+6
34  4.812104e+6
35  4.598611e+6
36  4.387527e+6
37  4.185529e+6
38  3.992191e+6
39  3.804194e+6
40  3.620511e+6
41  3.446872e+6
42  3.278550e+6
43  3.116489e+6
44  2.958151e+6
45  2.807417e+6
46  2.661817e+6
47  2.520948e+6
48  2.383216e+6
49  2.252774e+6
50  2.126031e+6
51  2.001700e+6
52  1.882799e+6
53  1.767218e+6
54  1.654954e+6
55  1.544521e+6
56  1.438214e+6
57  1.334408e+6
58  1.233376e+6
59  1.132021e+6
60  1.033439e+6
61  936297
62  839032.1
63  742455.7
64  645961
65  548741.2
66  442203.9
67  340618.8
68  200978.8
69  0
