**** COMMENT ****

**** INPUTS ****
kVp [kV] hvMIN [keV] Dhv [keV]
62  7  1
Angle [deg.]
10
t_AIR t_BE t_AL t_CU t_SN t_W t_Wa [mm]
0  1.4  0  0  0  0  0
Nf P
0.68  0.33
****CALCULATED OUTPUTS ****
Brem[uGy/mAs@1m] Char[uGy/mAs@1m]
884.2869  0
HVL1[cm AL] HVL2[cm AL] HVL1[cmCu] HVL2[cmCu] MeanE[keV] EffEAl[keV] EffECu[keV]
0.0099883  0.0199585  0.0008091  0.0012871  23.42485  10.07779  6.505882
**** CALCULATED SPECTRUM ****
Energy[keV]  N[keV cm^2 mAs]^-1 @ 1 meter
7  9.505827e+6
8  1.194887e+7
9  1.382022e+7
10  1.491142e+7
11  8.136106e+6
12  6.799610e+6
13  6.471999e+6
14  6.839711e+6
15  7.094444e+6
16  7.312810e+6
17  7.416138e+6
18  7.434191e+6
19  7.392395e+6
20  7.295046e+6
21  7.149705e+6
22  6.973536e+6
23  6.768179e+6
24  6.542480e+6
25  6.303817e+6
26  6.055239e+6
27  5.805474e+6
28  5.556214e+6
29  5.308150e+6
30  5.065074e+6
31  4.825546e+6
32  4.589982e+6
33  4.366098e+6
34  4.149154e+6
35  3.938748e+6
36  3.732777e+6
37  3.535375e+6
38  3.347396e+6
39  3.165074e+6
40  2.989069e+6
41  2.821400e+6
42  2.657216e+6
43  2.501264e+6
44  2.350327e+6
45  2.204678e+6
46  2.064330e+6
47  1.926162e+6
48  1.793721e+6
49  1.666721e+6
50  1.542625e+6
51  1.421669e+6
52  1.302253e+6
53  1.185603e+6
54  1.071796e+6
55  959053.4
56  847205.7
57  734502.4
58  620742.2
59  501682
60  381724.5
61  235624.5
62  0
