**** COMMENT ****

**** INPUTS ****
kVp [kV] hvMIN [keV] Dhv [keV]
52  7  1
Angle [deg.]
10
t_AIR t_BE t_AL t_CU t_SN t_W t_Wa [mm]
0  1.4  0  0  0  0  0
Nf P
0.68  0.33
****CALCULATED OUTPUTS ****
Brem[uGy/mAs@1m] Char[uGy/mAs@1m]
871.6381  0
HVL1[cm AL] HVL2[cm AL] HVL1[cmCu] HVL2[cmCu] MeanE[keV] EffEAl[keV] EffECu[keV]
0.0093169  0.0170021  0.0007801  0.0011848  20.30047  9.857443  6.41771
**** CALCULATED SPECTRUM ****
Energy[keV]  N[keV cm^2 mAs]^-1 @ 1 meter
7  1.008366e+7
8  1.234033e+7
9  1.384554e+7
10  1.451716e+7
11  8.403557e+6
12  7.049288e+6
13  6.659078e+6
14  6.907606e+6
15  7.028941e+6
16  7.103534e+6
17  7.066375e+6
18  6.951620e+6
19  6.789701e+6
20  6.586287e+6
21  6.353621e+6
22  6.102614e+6
23  5.835535e+6
24  5.562408e+6
25  5.287531e+6
26  5.011696e+6
27  4.743406e+6
28  4.480182e+6
29  4.224404e+6
30  3.977943e+6
31  3.740083e+6
32  3.509510e+6
33  3.289223e+6
34  3.077764e+6
35  2.874371e+6
36  2.677200e+6
37  2.489856e+6
38  2.309970e+6
39  2.135363e+6
40  1.966689e+6
41  1.804373e+6
42  1.647005e+6
43  1.493962e+6
44  1.344547e+6
45  1.198057e+6
46  1.053589e+6
47  909882.5
48  766315.5
49  620254.2
50  463737.1
51  306396.8
52  0
