**** COMMENT ****

**** INPUTS ****
kVp [kV] hvMIN [keV] Dhv [keV]
51  7  1
Angle [deg.]
10
t_AIR t_BE t_AL t_CU t_SN t_W t_Wa [mm]
0  1.4  0  0  0  0  0
Nf P
0.68  0.33
****CALCULATED OUTPUTS ****
Brem[uGy/mAs@1m] Char[uGy/mAs@1m]
869.1715  0
HVL1[cm AL] HVL2[cm AL] HVL1[cmCu] HVL2[cmCu] MeanE[keV] EffEAl[keV] EffECu[keV]
0.0092473  0.0167246  0.0007778  0.0011749  19.99135  9.835607  6.410469
**** CALCULATED SPECTRUM ****
Energy[keV]  N[keV cm^2 mAs]^-1 @ 1 meter
7  1.013953e+7
8  1.236745e+7
9  1.382670e+7
10  1.445091e+7
11  8.421176e+6
12  7.064876e+6
13  6.667427e+6
14  6.900342e+6
15  7.005423e+6
16  7.062938e+6
17  7.010163e+6
18  6.881543e+6
19  6.707534e+6
20  6.493754e+6
21  6.252801e+6
22  5.995063e+6
23  5.722875e+6
24  5.445840e+6
25  5.169898e+6
26  4.894551e+6
27  4.625165e+6
28  4.361446e+6
29  4.105722e+6
30  3.859478e+6
31  3.622233e+6
32  3.392317e+6
33  3.172721e+6
34  2.962076e+6
35  2.759557e+6
36  2.563274e+6
37  2.376489e+6
38  2.195976e+6
39  2.021766e+6
40  1.853383e+6
41  1.691072e+6
42  1.533311e+6
43  1.379282e+6
44  1.228519e+6
45  1.079884e+6
46  932440.4
47  784702
48  635266.9
49  474041.4
50  315488.8
51  0
