**** COMMENT ****

**** INPUTS ****
kVp [kV] hvMIN [keV] Dhv [keV]
66  7  1
Angle [deg.]
10
t_AIR t_BE t_AL t_CU t_SN t_W t_Wa [mm]
0  1.4  0  0  0  0  0
Nf P
0.68  0.33
****CALCULATED OUTPUTS ****
Brem[uGy/mAs@1m] Char[uGy/mAs@1m]
884.9338  0
HVL1[cm AL] HVL2[cm AL] HVL1[cmCu] HVL2[cmCu] MeanE[keV] EffEAl[keV] EffECu[keV]
0.0102563  0.0212908  0.0008213  0.0013329  24.68047  10.18272  6.541145
**** CALCULATED SPECTRUM ****
Energy[keV]  N[keV cm^2 mAs]^-1 @ 1 meter
7  9.276959e+6
8  1.175387e+7
9  1.370917e+7
10  1.494050e+7
11  8.005401e+6
12  6.682325e+6
13  6.370636e+6
14  6.771404e+6
15  7.065171e+6
16  7.335378e+6
17  7.484086e+6
18  7.548978e+6
19  7.552669e+6
20  7.497287e+6
21  7.389391e+6
22  7.248547e+6
23  7.068985e+6
24  6.866637e+6
25  6.643278e+6
26  6.412673e+6
27  6.174750e+6
28  5.932610e+6
29  5.688141e+6
30  5.449242e+6
31  5.213906e+6
32  4.979611e+6
33  4.752721e+6
34  4.534055e+6
35  4.322628e+6
36  4.113085e+6
37  3.915865e+6
38  3.721255e+6
39  3.536349e+6
40  3.356748e+6
41  3.186043e+6
42  3.017994e+6
43  2.858702e+6
44  2.704769e+6
45  2.556514e+6
46  2.411573e+6
47  2.272983e+6
48  2.139173e+6
49  2.010202e+6
50  1.883385e+6
51  1.761766e+6
52  1.643816e+6
53  1.529498e+6
54  1.416224e+6
55  1.307133e+6
56  1.199606e+6
57  1.094681e+6
58  989974.3
59  886726.7
60  784016.9
61  681639.1
62  577937
63  466311.2
64  357001.4
65  214678.5
66  0
