**** COMMENT ****

**** INPUTS ****
kVp [kV] hvMIN [keV] Dhv [keV]
65  7  1
Angle [deg.]
10
t_AIR t_BE t_AL t_CU t_SN t_W t_Wa [mm]
0  1.4  0  0  0  0  0
Nf P
0.68  0.33
****CALCULATED OUTPUTS ****
Brem[uGy/mAs@1m] Char[uGy/mAs@1m]
884.8822  0
HVL1[cm AL] HVL2[cm AL] HVL1[cmCu] HVL2[cmCu] MeanE[keV] EffEAl[keV] EffECu[keV]
0.0101895  0.0209503  0.0008183  0.0013214  24.36684  10.15709  6.532428
**** CALCULATED SPECTRUM ****
Energy[keV]  N[keV cm^2 mAs]^-1 @ 1 meter
7  9.333462e+6
8  1.180359e+7
9  1.373810e+7
10  1.493571e+7
11  8.039171e+6
12  6.711892e+6
13  6.396610e+6
14  6.787624e+6
15  7.073777e+6
16  7.332380e+6
17  7.474241e+6
18  7.521790e+6
19  7.515652e+6
20  7.449401e+6
21  7.336301e+6
22  7.182536e+6
23  6.996927e+6
24  6.788162e+6
25  6.563259e+6
26  6.325585e+6
27  6.083743e+6
28  5.840509e+6
29  5.596840e+6
30  5.356808e+6
31  5.117919e+6
32  4.884040e+6
33  4.658875e+6
34  4.441663e+6
35  4.227497e+6
36  4.019020e+6
37  3.821902e+6
38  3.630870e+6
39  3.444670e+6
40  3.265236e+6
41  3.095499e+6
42  2.930633e+6
43  2.771987e+6
44  2.616940e+6
45  2.469696e+6
46  2.327153e+6
47  2.189035e+6
48  2.054544e+6
49  1.925944e+6
50  1.800886e+6
51  1.679481e+6
52  1.561101e+6
53  1.445668e+6
54  1.333826e+6
55  1.224245e+6
56  1.116771e+6
57  1.008836e+6
58  903849.4
59  798802.9
60  694594.1
61  587947.7
62  474727.4
63  362797.3
64  219640.1
65  0
