**** COMMENT ****

**** INPUTS ****
kVp [kV] hvMIN [keV] Dhv [keV]
50  7  1
Angle [deg.]
10
t_AIR t_BE t_AL t_CU t_SN t_W t_Wa [mm]
0  1.4  0  0  0  0  0
Nf P
0.68  0.33
****CALCULATED OUTPUTS ****
Brem[uGy/mAs@1m] Char[uGy/mAs@1m]
866.5538  0
HVL1[cm AL] HVL2[cm AL] HVL1[cmCu] HVL2[cmCu] MeanE[keV] EffEAl[keV] EffECu[keV]
0.0091796  0.0164537  0.0007748  0.0011658  19.67895  9.814051  6.400748
**** CALCULATED SPECTRUM ****
Energy[keV]  N[keV cm^2 mAs]^-1 @ 1 meter
7  1.019449e+7
8  1.239155e+7
9  1.380316e+7
10  1.437921e+7
11  8.436756e+6
12  7.081320e+6
13  6.676293e+6
14  6.896490e+6
15  6.981730e+6
16  7.022042e+6
17  6.953677e+6
18  6.811313e+6
19  6.625420e+6
20  6.401508e+6
21  6.152537e+6
22  5.888346e+6
23  5.611316e+6
24  5.330633e+6
25  5.050166e+6
26  4.773228e+6
27  4.502779e+6
28  4.240660e+6
29  3.982972e+6
30  3.736883e+6
31  3.500358e+6
32  3.270840e+6
33  3.052067e+6
34  2.842122e+6
35  2.640444e+6
36  2.444755e+6
37  2.258489e+6
38  2.078324e+6
39  1.904361e+6
40  1.736070e+6
41  1.573412e+6
42  1.414580e+6
43  1.259203e+6
44  1.106209e+6
45  954490.6
46  802784.7
47  649436.2
48  483270.7
49  321678.7
50  0
