**** COMMENT ****

**** INPUTS ****
kVp [kV] hvMIN [keV] Dhv [keV]
57  7  1
Angle [deg.]
10
t_AIR t_BE t_AL t_CU t_SN t_W t_Wa [mm]
0  1.4  0  0  0  0  0
Nf P
0.68  0.33
****CALCULATED OUTPUTS ****
Brem[uGy/mAs@1m] Char[uGy/mAs@1m]
880.4336  0
HVL1[cm AL] HVL2[cm AL] HVL1[cmCu] HVL2[cmCu] MeanE[keV] EffEAl[keV] EffECu[keV]
0.0096517  0.0184193  0.0007946  0.0012337  21.85857  9.958037  6.4626
**** CALCULATED SPECTRUM ****
Energy[keV]  N[keV cm^2 mAs]^-1 @ 1 meter
7  9.804721e+6
8  1.217864e+7
9  1.387441e+7
10  1.476735e+7
11  8.286863e+6
12  6.937325e+6
13  6.580917e+6
14  6.896854e+6
15  7.091264e+6
16  7.245392e+6
17  7.278168e+6
18  7.230047e+6
19  7.128288e+6
20  6.979182e+6
21  6.790788e+6
22  6.576092e+6
23  6.337010e+6
24  6.085846e+6
25  5.824096e+6
26  5.562203e+6
27  5.301663e+6
28  5.044728e+6
29  4.791489e+6
30  4.545559e+6
31  4.307055e+6
32  4.073719e+6
33  3.848738e+6
34  3.633675e+6
35  3.426343e+6
36  3.225472e+6
37  3.034328e+6
38  2.849743e+6
39  2.672029e+6
40  2.500807e+6
41  2.335105e+6
42  2.175916e+6
43  2.022183e+6
44  1.874803e+6
45  1.731247e+6
46  1.592178e+6
47  1.456529e+6
48  1.324501e+6
49  1.193933e+6
50  1.065614e+6
51  938341.9
52  812914.3
53  686219.1
54  554551.4
55  418441.8
56  267096.6
57  0
