**** COMMENT ****

**** INPUTS ****
kVp [kV] hvMIN [keV] Dhv [keV]
60  6  1
Angle [deg.]
10
t_AIR t_BE t_AL t_CU t_SN t_W t_Wa [mm]
0  1.4  0  0  0  0  0
Nf P
0.68  0.33
****CALCULATED OUTPUTS ****
Brem[uGy/mAs@1m] Char[uGy/mAs@1m]
1026.53  0
HVL1[cm AL] HVL2[cm AL] HVL1[cmCu] HVL2[cmCu] MeanE[keV] EffEAl[keV] EffECu[keV]
0.0076785  0.0158195  0.0007778  0.0011353  22.36003  9.238555  6.410469
**** CALCULATED SPECTRUM ****
Energy[keV]  N[keV cm^2 mAs]^-1 @ 1 meter
6  6.574600e+6
7  9.617743e+6
8  1.204135e+7
9  1.385230e+7
10  1.486765e+7
11  8.204167e+6
12  6.855322e+6
13  6.516100e+6
14  6.865982e+6
15  7.097537e+6
16  7.293792e+6
17  7.372357e+6
18  7.360372e+6
19  7.294043e+6
20  7.176391e+6
21  7.015567e+6
22  6.824383e+6
23  6.604432e+6
24  6.368230e+6
25  6.117072e+6
26  5.865725e+6
27  5.611887e+6
28  5.357982e+6
29  5.107787e+6
30  4.861054e+6
31  4.622118e+6
32  4.388521e+6
33  4.164038e+6
34  3.948019e+6
35  3.739001e+6
36  3.532819e+6
37  3.339040e+6
38  3.152471e+6
39  2.971803e+6
40  2.797666e+6
41  2.631503e+6
42  2.471324e+6
43  2.314101e+6
44  2.165093e+6
45  2.020376e+6
46  1.880658e+6
47  1.745011e+6
48  1.612846e+6
49  1.484575e+6
50  1.360312e+6
51  1.237809e+6
52  1.118002e+6
53  999985.5
54  881733.1
55  763539.3
56  645801.8
57  521554.7
58  395557.1
59  247431.6
60  0
