**** COMMENT ****

**** INPUTS ****
kVp [kV] hvMIN [keV] Dhv [keV]
70  7  1
Angle [deg.]
10
t_AIR t_BE t_AL t_CU t_SN t_W t_Wa [mm]
0  1.4  0  0  0  0  0
Nf P
0.68  0.33
****CALCULATED OUTPUTS ****
Brem[uGy/mAs@1m] Char[uGy/mAs@1m]
884.0201  0
HVL1[cm AL] HVL2[cm AL] HVL1[cmCu] HVL2[cmCu] MeanE[keV] EffEAl[keV] EffECu[keV]
0.010529  0.0227261  0.0008343  0.0013802  25.93483  10.28403  6.577481
**** CALCULATED SPECTRUM ****
Energy[keV]  N[keV cm^2 mAs]^-1 @ 1 meter
7  9.044559e+6
8  1.153754e+7
9  1.358851e+7
10  1.493389e+7
11  7.861293e+6
12  6.558429e+6
13  6.268234e+6
14  6.689841e+6
15  7.016933e+6
16  7.327256e+6
17  7.524351e+6
18  7.627555e+6
19  7.676093e+6
20  7.661405e+6
21  7.591729e+6
22  7.484112e+6
23  7.333275e+6
24  7.155645e+6
25  6.951563e+6
26  6.738325e+6
27  6.513872e+6
28  6.278884e+6
29  6.044590e+6
30  5.810271e+6
31  5.579292e+6
32  5.343430e+6
33  5.120123e+6
34  4.902657e+6
35  4.687293e+6
36  4.475423e+6
37  4.275472e+6
38  4.081051e+6
39  3.889902e+6
40  3.707305e+6
41  3.532857e+6
42  3.364225e+6
43  3.199477e+6
44  3.041978e+6
45  2.890197e+6
46  2.742020e+6
47  2.600361e+6
48  2.463952e+6
49  2.332857e+6
50  2.203930e+6
51  2.079869e+6
52  1.960722e+6
53  1.843360e+6
54  1.730743e+6
55  1.621585e+6
56  1.514219e+6
57  1.410396e+6
58  1.308862e+6
59  1.209524e+6
60  1.110660e+6
61  1.014366e+6
62  919366.7
63  824410.7
64  729741.4
65  634806.1
66  539147.4
67  434966.4
68  335576.9
69  196705.2
70  0
